NOAA STAR SSU
Year
Brightness Temperature (K)
Year SSU_Ch1 SSU_Ch2 SSU_Ch3
1978.88   227.9227  239.6501   NA 
1978.96   227.9281  239.4705   NA 
1979.04   227.7369  238.9434   NA 
1979.12   227.2338  238.0817   NA 
1979.21   226.7367  237.4721   NA 
1979.29   226.6059  237.5188  247.2282
1979.37   226.9541  238.238  248.0619
1979.46   227.3461  238.7115  248.5456
1979.54   227.5933  238.9319  248.8641
1979.62   227.8761  239.2923  249.3541
1979.71   228.0007  239.4144  249.6837
1979.79   228.1069  239.8261  250.1682
1979.87   228.0828  239.8571  250.0122
1979.96   227.9084  239.4551  249.3943
1980.04   227.4754  238.7883  248.693
1980.12   227.0507  238.0132  247.784
1980.21   226.6284  237.386  247.1767
1980.29   226.496  237.3617  247.3605
1980.37   226.7591  237.9169  247.9396
1980.46   227.3561  238.7122  248.6818
1980.54   227.6977  239.0025  248.9575
1980.62   227.8171  239.2289  249.402
1980.71   227.9354  239.5603   NA 
1980.79   227.9851  239.7842  250.1985
1980.87   227.8728  239.5902  249.6901
1980.96   227.856  239.4638  249.5533
1981.04   227.5265  238.819  248.7798
1981.12   227.1208  238.0989  247.8421
1981.21   226.6294  237.3831  247.1095
1981.29   226.2821  237.2827  247.3725
1981.37   226.6879  237.9435  248.047
1981.46   227.3264  238.7509  248.8597
1981.54   227.6947  239.1069  249.2702
1981.62   227.7858  239.2252  249.523
1981.71   227.8416  239.4683  249.9474
1981.79   227.87  239.6312  250.0215
1981.87   228.0086  239.7091  249.881
1981.96   227.8583  239.3862  249.6111
1982.04   227.5705  238.7952  248.9202
1982.12   227.2624  238.0241  247.8694
1982.21   226.9169  237.5867  247.5462
1982.29   226.8707  237.7368  247.8077
1982.37   227.2605  238.3805  248.3887
1982.46   227.8277  238.9688  248.9323
1982.54   228.0767  239.1527  249.1213
1982.62   228.2699  239.4868  249.6433
1982.71   228.2445  239.6194  249.8364
1982.79   228.4872  239.9474  250.0782
1982.87   228.3144  239.77  249.8807
1982.96   228.1347  239.5168  249.5517
1983.04   227.7626  238.9692  248.8514
1983.12   227.1222  237.7146  247.3876
1983.21   226.5206  237.0166  246.7473
1983.29   226.2939  237.0443  247.031
1983.37   226.6897  237.7448  247.7152
1983.46   227.174  238.2555  248.1794
1983.54   227.5475  238.6128  248.3341
1983.62   227.6586  238.8459  248.6204
1983.71   227.7744  239.1552  249.0312
1983.79   227.8176  239.3204  249.2148
1983.87   227.6536  239.1675  249.1564
1983.96   227.4549  238.8432  248.6166
1984.04   227.2401  238.2896  248.0035
1984.12   226.6858  237.3805  246.9005
1984.21   226.2233  236.7971  246.1872
1984.29   225.9727   NA   246.331
1984.37   226.3087   NA   247.088
1984.46   226.7861   NA   247.5061
1984.54   227.0609   NA   247.7113
1984.62   227.1313   NA   248.1107
1984.71   227.3638   NA   248.4919
1984.79   227.4498  238.974  248.4992
1984.87   227.3462  238.812  248.4289
1984.96    NA   238.5596  248.2168
1985.04   226.6489  237.808  247.5646
1985.12   226.3772  236.9784  246.5924
1985.21   225.9516  236.4414  246.123
1985.29   225.8471  236.4822  246.2817
1985.37   226.1679  237.144  246.8528
1985.46   226.7145  237.7786  247.3552
1985.54   227.0885  238.1581  247.8719
1985.62   227.0382  238.1593  247.9796
1985.71   227.0518  238.3673  248.3024
1985.79   227.2286  238.8868  248.7058
1985.87   227.3596  238.8154  248.6766
1985.96   227.1324  238.4509  248.2935
1986.04   226.8784  237.8982  247.621
1986.12   226.4479  237.0607  246.6
1986.21   225.9727  236.4937  246.0728
1986.29   225.8463  236.5819  246.3605
1986.37   226.1449  237.0911  246.683
1986.46   226.5938  237.6138  247.2275
1986.54   226.9981  237.9924  247.6866
1986.62   227.0802  238.1898  248.0425
1986.71   227.341  238.75  248.619
1986.79   227.343  238.8367  248.7036
1986.87   227.2071  238.5913  248.3609
1986.96   227.0298  238.2668  248.142
1987.04   226.815  237.7798  247.5569
1987.12   226.352  236.9298  246.6373
1987.21   225.8193  236.2857  246.0854
1987.29   225.7163  236.4359  246.413
1987.37   225.996  236.9218  246.7457
1987.46   226.554  237.6898  247.4597
1987.54   226.8798  237.9337  247.7498
1987.62   227.0044  238.0843  248.0042
1987.71   227.0051  238.2369  248.1203
1987.79   227.1528  238.4824  248.6004
1987.87   227.17  238.7968  249.0191
1987.96   227.0156  238.4014  248.3242
1988.04   226.7498  237.7984  247.6754
1988.12   226.2474  236.852  246.6386
1988.21   225.7238  236.1883  246.1291
1988.29   225.5872  236.3494  246.3922
1988.37   226.024  237  246.8112
1988.46   226.4638  237.5192  247.3272
1988.54   226.861  237.8716  247.8234
1988.62   227.1117  238.2685  248.2967
1988.71   227.2952  238.6199  248.7291
1988.79   227.4165  238.9838  249.1924
1988.87   227.4372  239.0287  249.0346
1988.96   227.2271  238.5782  248.5162
1989.04   226.9571  237.9689  247.8852
1989.12   226.5064  237.1712  246.959
1989.21   225.9613  236.4368  246.269
1989.29   225.6697  236.2843  246.2991
1989.37   225.9319  236.8892  246.9243
1989.46   226.5454  237.7558  247.6855
1989.54   226.9435  238.1044  248.0377
1989.62   226.9699  238.2921  248.4231
1989.71   227.2851  238.7865  248.9961
1989.79   227.2979  239.0245  249.3522
1989.87   227.2315  238.8656  248.9443
1989.96   227.13  238.5089  248.5826
1990.04   226.8274  237.9213  247.9837
1990.12   226.3041  237.0559  247.0455
1990.21   225.8689  236.455  246.3967
1990.29   225.6578  236.4447  246.5439
1990.37   226.0731  237.1799  247.1094
1990.46   226.5201  237.719  247.5517
1990.54   226.8648  238.096  248.0416
1990.62   227.0187  238.3407  248.3732
1990.71   227.0415  238.4443  248.5581
1990.79   226.9805  238.5454  248.7395
1990.87   227.102  238.7991  249.0051
1990.96   227.1204  238.6371  248.7984
1991.04   226.8374  238.0489  248.079
1991.12   226.3314  237.1672  247.0725
1991.21   225.8178  236.4618  246.4219
1991.29   225.9887  236.7921  246.8197
1991.37   226.8901  237.7552  247.4518
1991.46   227.6458  238.4327  248.0016
1991.54   227.8743  238.6971  248.3974
1991.62   227.8371  238.8601  248.7908
1991.71   228.0165  239.2637  249.2004
1991.79   228.0607  239.4256  249.2739
1991.87   228.0029  239.364  249.2175
1991.96   227.8737  239.0277  248.8591
1992.04   227.4003  238.2742  248.0394
1992.12   226.7521  237.2555  246.9212
1992.21   226.2108  236.5541  246.2325
1992.29   226.0734  236.6831  246.4439
1992.37   226.4018  237.3469  246.9894
1992.46   226.8211  237.8183  247.4454
1992.54   226.967  237.9791  247.7727
1992.62   227.1759  238.3584  248.3481
1992.71   227.3272  238.5888  248.577
1992.79   227.4465  238.8761  248.8504
1992.87   227.3455  238.7818  248.6724
1992.96   227.0538  238.396  248.2415
1993.04   226.6419  237.676  247.4742
1993.12   226.043  236.71  246.3981
1993.21   225.4731  235.9508  245.6322
1993.29   225.2929  236.0071  245.8582
1993.37   225.6611  236.7002  246.4098
1993.46   226.1  237.2205  246.8451
1993.54   226.3506  237.4382  247.1615
1993.62   226.3868  237.5533  247.456
1993.71   226.4473  237.8517  247.892
1993.79   226.6724  238.2299  248.1798
1993.87   226.8304  238.4262  248.3589
1993.96   226.6843  238.0601  247.9103
1994.04   226.3179  237.3317  247.0496
1994.12   225.8544  236.5039  246.1143
1994.21   225.35  235.8019  245.5108
1994.29   225.1848  235.8594  245.6961
1994.37   225.5418  236.488  246.1652
1994.46   226.0908  237.107  246.7321
1994.54   226.3211  237.3008  247.0392
1994.62   226.2699  237.4308  247.3792
1994.71   226.5197  237.6937  247.7056
1994.79   226.7773  238.1383  247.8244
1994.87   226.7883  238.0698  247.7533
1994.96   226.638  237.7644  247.5338
1995.04   226.2395  237.0911  246.7172
1995.12   225.6707  236.1752  245.7509
1995.21   225.1032  235.4735  245.0925
1995.29   224.9133  235.5715  245.3314
1995.37   225.2823  236.1805  245.8302
1995.46   225.8122  236.7949  246.3669
1995.54   226.1823  237.1756  246.8238
1995.62   226.284  237.3533  247.1084
1995.71   226.2791  237.4245  247.3607
1995.79   226.3342  237.769  247.7982
1995.87   226.4984  237.9102  247.7995
1995.96   226.3526  237.5903  247.4121
1996.04   225.9637  236.9076  246.6497
1996.12   225.4877  236.0671  245.7256
1996.21   225.1272  235.5554  245.2731
1996.29   225.0372  235.7164  245.5138
1996.37   225.3982  236.2466  245.8471
1996.46   225.7323  236.7413  246.488
1996.54   226.1766  237.1735  246.9762
1996.62   226.3082  237.3533  247.2687
1996.71   226.2517  237.4431  247.4838
1996.79   226.4666  237.93  247.9758
1996.87   226.5768  238.0804  248.0599
1996.96   226.504  237.7839  247.7078
1997.04   226.0631  236.9878  246.8078
1997.12   225.4764  236.0286  245.7472
1997.21   224.9751  235.3716  245.1653
1997.29   224.9607  235.6205  245.4977
1997.37   225.4005  236.2859  245.9841
1997.46   225.9173  236.9449  246.603
1997.54   226.1864  237.2029  246.9392
1997.62   226.1338  237.289  247.2455
1997.71   226.2166  237.6907  247.6952
1997.79   226.3964  237.8242  247.7828
1997.87   226.5016  237.9414  247.8591
1997.96   226.4618  237.7772  247.6761
1998.04   226.188  237.1641  246.9426
1998.12   225.6736  236.2354  245.901
1998.21   225.1622  235.6046  245.2753
1998.29   225.1041  235.8504  245.6756
1998.37   225.426  236.3873  246.2019
1998.46   225.9101  236.9818  246.7846
1998.54   226.2768  237.2932  247.0694
1998.62   226.369  237.4887  247.4757
1998.71   226.537  237.7954  247.6438
1998.79   226.5683  237.8808  247.8456
1998.87   226.5116  237.9268  247.95
1998.96   226.3092  237.7111  247.6213
1999.04   225.9696  237.0356  246.8946
1999.12   225.571  236.2421  245.9639
1999.21   225.1346  235.6243  245.4471
1999.29   224.9978  235.7693  245.7459
1999.37   225.415  236.4345  246.2376
1999.46   225.8968  236.996  246.7036
1999.54   226.2459  237.3146  247.0623
1999.62   226.3531  237.4987  247.4379
1999.71   226.3541  237.6165  247.5714
1999.79   226.5523  238.1008  248.1875
1999.87   226.7068  238.1503  248.0063
1999.96   226.4973  237.8078  247.7005
2000.04   226.2438  237.2953  247.0816
2000.12   225.7071  236.3467  245.98
2000.21   225.1869  235.6609  245.2913
2000.29   224.9566  235.6398  245.4545
2000.37   225.3968  236.4611  246.1813
2000.46   225.8429  236.9474  246.5497
2000.54   226.0241  237.1364  246.8694
2000.62   226.1557  237.3297  247.1977
2000.71   226.4917  237.7333  247.4928
2000.79   226.5652  237.8858  247.6751
2000.87   226.5535  238.1131  247.8739
2000.96   226.3835  237.6926  247.4733
2001.04   226.1445  237.1377  246.8382
2001.12   225.7253  236.3345  245.8764
2001.21   225.2331  235.7272  245.3209
2001.29   224.9934  235.5646  245.2931
2001.37   225.2999  236.1886  245.9398
2001.46   225.9827  237.0827  246.6879
2001.54   226.3613  237.4431  247.1469
2001.62   226.4582  237.592  247.4861
2001.71   226.6092  237.83  247.6473
2001.79   226.8728  238.2666  247.9707
2001.87   226.8305  238.3443  248.1632
2001.96   226.6653  238.0498  247.8383
2002.04   226.2486  237.292  247.0042
2002.12   225.6947  236.3797  245.9772
2002.21   225.2024  235.8423  245.5127
2002.29   225.1602  235.9323  245.5946
2002.37   225.4318  236.4475  246.0804
2002.46   225.8511  236.9668  246.5601
2002.54   226.2378  237.4099  247.1197
2002.62   226.4205  237.6535  247.4813
2002.71   226.5794  237.9821  247.8229
2002.79   226.7276  238.2688  248.1066
2002.87   226.6536  238.1305  247.9041
2002.96   226.4783  237.7967  247.5051
2003.04   226.1476  237.1474  246.7786
2003.12   225.679  236.2898  245.803
2003.21   225.1435  235.5991  245.2368
2003.29   224.9255  235.61  245.4157
2003.37   225.3228  236.3121  246.0385
2003.46   225.7942  236.8829  246.5197
2003.54   225.9409  236.9628  246.6683
2003.62   226.2421  237.4236  247.2896
2003.71   226.5469  237.8337  247.5818
2003.79   226.5566  237.9107  247.572
2003.87   226.3801  237.6583  247.3446
2003.96   226.2519  237.531  247.3066
2004.04   225.9647  236.9458  246.5754
2004.12   225.4778  236.0596  245.579
2004.21   225.0405  235.4575  245.0391
2004.29   224.9019  235.5782  245.2986
2004.37   225.2909  236.2552  245.8826
2004.46   225.8122  236.8948  246.4367
2004.54   226.0293  237.1297  246.7753
2004.62   226.2696  237.4768  247.2683
2004.71   226.3592  237.7772  247.7184
2004.79   226.5011  238.1038  248.0823
2004.87   226.5103  238.0442  247.8247
2004.96   226.2479  237.5716  247.1917
2005.04   225.9154  236.9377  246.5135
2005.12   225.4689  236.1151  245.5472
2005.21   225.0208  235.5491  244.9853
2005.29   224.8543  235.5727  245.1874
2005.37   225.2638  236.3272  245.8921
2005.46   225.665  236.813  246.364
2005.54   225.9602  237.0772  246.6941
2005.62   226.0881  237.3533  247.1117
2005.71   226.3736  237.827  247.6207
2005.79   226.3295  237.9747  247.7569
2005.87   226.1656  237.6234  247.3296
2005.96   225.9691  237.3139  247.1063
2006.04   225.7842  236.8424  246.4825
2006.12   225.37  235.9605  245.5467
2006.21   224.9184  235.3734  245.0396
2006.29   224.8169  235.4608  245.3229
2006.37   225.1361  236.0863  245.8991
2006.46   225.6636  236.7237  246.3484
2006.54   225.9015  236.9153  246.5557
2006.62   226.0777  237.1833  247.0021
2006.71   226.0249  237.4085  247.3231
2006.79   226.2528  237.6601  247.5015
2006.87   226.3266  237.7524  247.522
2006.96   226.1945  237.4334  247.1093
2007.04   225.8838  236.7771  246.3633
2007.12   225.353  235.9055  245.3864
2007.21   224.7772  235.194  244.7881
2007.29   224.6788  235.3765  245.0007
2007.37   225.0338  236.0184  245.6457
2007.46   225.4506  236.47  246.0025
2007.54   225.7548  236.7458  246.3971
2007.62   226.0615  237.1729  246.9905
2007.71   226.0845  237.3253  247.2771
2007.79   226.1962  237.6028  247.5188
2007.87   226.1488  237.5573  247.3154
2007.96   226.0297  237.2773  246.9719
2008.04   225.6556  236.5784  246.1945
2008.12   225.154  235.7084  245.234
2008.21   224.6207  234.9626  244.5006
2008.29   224.4328  234.9729  244.7963
2008.37   224.8065  235.6872  245.5236
2008.46   225.3499  236.344  245.9671
2008.54   225.684  236.642  246.2457
2008.62   225.8687  236.9579  246.6883
2008.71   225.8785  237.1865  247.0497
2008.79   226.0044  237.3644  247.1916
2008.87   225.8909  237.1936  246.8329
2008.96   225.8629  236.9751  246.7138
2009.04   225.7032  236.5253  246.1119
2009.12   225.2947  235.8149  245.2731
2009.21   224.7354  235.1114  244.5869
2009.29   224.4605  235.0087  244.771
2009.37   224.8902  235.8109  245.5863
2009.46   225.4952  236.511  246.0758
2009.54   225.7746  236.6962  246.3384
2009.62   225.9605  237.0054  246.7342
2009.71   226.1134  237.4472  247.2497
2009.79   226.1778  237.5799  247.4015
2009.87   226.1195  237.5163  247.2413
2009.96   225.965  237.1754  246.9279
2010.04   225.7821  236.6718  246.2919
2010.12   225.3481  235.858  245.3466
2010.21   224.8409  235.202  244.781
2010.29   224.7617  235.3852  244.9607
2010.37   225.2312  236.0608  245.5042
2010.46   225.5836  236.5299  246.0847
2010.54   225.9338  236.8638  246.4643
2010.62   226.2007  237.2551  247.0275
2010.71   226.2774  237.5003  247.3116
2010.79   226.2523  237.5278  247.3014
2010.87   226.3575  237.7406  247.4733
2010.96   226.1641  237.4144  247.106
2011.04   225.6226  236.6376  246.2676
2011.12   225.1091  235.7737  245.3049
2011.21   224.5914  235.0493  244.6489
2011.29   224.4656  235.1005  244.8375
2011.37   224.8928  235.8505  245.5909
2011.46   225.4264  236.4994  246.1489
2011.54   225.828  236.8508  246.5447
2011.62   226.0441  237.1864  247.022
2011.71   226.0767  237.4128  247.3155
2011.79   226.1075  237.5648  247.2845
2011.87   225.9693  237.2833  246.9862
2011.96   225.9179  237.1709  246.8955
2012.04   225.6264  236.5542  246.1683
2012.12   225.137  235.7029  245.2376
2012.21   224.7172  235.1413  244.801
2012.29   224.6736  235.4428  245.1336
2012.37   225.0651  236.0308  245.5435
2012.46   225.4869  236.4754  246.0059
2012.54   225.6692  236.7171  246.4217
2012.62   225.945  237.0841  246.935
2012.71   225.884  237.183  247.2313
2012.79   226.048  237.3226  247.0445
2012.87   226.0025  237.1632  246.8197
2012.96   225.8965  237.07  246.7938
2013.04   225.6031  236.5166  246.131
2013.12   225.1083  235.6846  245.2541
2013.21   224.7515  235.2507  244.9369
2013.29   224.6721  235.3499  245.049
2013.37   225.0507  235.9736  245.5687
2013.46   225.4468  236.4306  245.9896
2013.54   225.7169  236.7222  246.3607
2013.62   226.0237  237.1459  246.9419
2013.71   226.1609  237.4546  247.426
2013.79   226.289  237.7556  247.6685
2013.87   226.3127  237.6953  247.4285
2013.96   226.157  237.3995  247.0332
2014.04   225.8  236.7402  246.3242
2014.12   225.2998  235.88  245.3664
2014.21   224.7322  235.0968  244.6242
2014.29   224.6511  235.272  244.8598
2014.37   225.0829  236.006  245.5363
2014.46   225.413  236.4446  246.0154
2014.54   225.7929  236.8383  246.5408
2014.62   226.0075  237.1917  247.0503
2014.71   226.2108  237.5826  247.4346
2014.79   226.2934  237.7644  247.5748
2014.87   226.3142  237.7407  247.5705
2014.96   226.0954  237.3486  247.1132
2015.04   225.6791  236.6749  246.3327
2015.12   225.2436  235.8265  245.388
2015.21   224.8006  235.2314  244.8689
2015.29   224.6873  235.2822  245.0629
2015.37   224.9231  235.7725  245.614
2015.46   225.4372  236.4492  246.1183
2015.54   225.9136  236.8609  246.4953
2015.62   225.8915  236.9241  246.7227
2015.71   225.8844  237.1224  247.048
2015.79   226.0668  237.5273  247.4957
2015.87   226.0306  237.4258  247.2024
2015.96   225.7971  237.085  246.7444
2016.04   225.5083  236.4437  246.0248
2016.12   224.9874  235.5604  245.0085
2016.21   224.471  234.9357  244.4159
2016.29   224.3149  234.9844  244.7033
2016.37   224.6846  235.6044  245.2313
2016.46   225.1986  236.2006  245.7835
2016.54   225.5071  236.4494  246.079
2016.62   225.5862  236.6887  246.4503
2016.71   225.6675  236.8796  246.785
2016.79   225.8868  237.2207  247.1056
2016.87   225.8563  237.139  246.8491
2016.96   225.8016  236.9415  246.5986
2017.04   225.4693  236.3043  245.8581
2017.12   224.9637  235.4443  244.9093
2017.21   224.4383  234.7813  244.3044
2017.29   224.3608  235.0448  244.7294
2017.37   224.7263  235.6229  245.0602
2017.46   225.1764  236.1093  245.5761
2017.54   225.5513  236.4604  246.101
2017.62   225.7275  236.7523  246.5584
2017.71   225.6912  236.9211  246.8852
2017.79   225.8576  237.1754  247.0602
2017.87   225.6943  237.0296  246.7597
2017.96   225.5868  236.7032  246.3786
2018.04   225.3674  236.1528  245.7383
2018.12   224.9415  235.3402  244.7667
2018.21   224.4368  234.6768  244.2204
2018.29   224.1851  234.6104  244.3408
2018.37   224.5767  235.3699  245.0669
2018.46   225.1889  236.0872  245.6206
2018.54   225.476  236.2961  245.879
2018.62   225.534  236.4907  246.2177
2018.71   225.691  236.8645  246.627
2018.79   225.7685  236.929  246.5256
2018.87   225.7204  236.7445  246.3221
2018.96   225.6046  236.7233  246.4487
2019.04   225.2631  236.0954  245.6485
2019.12   224.7129  235.1877  244.6647
2019.21   224.2092  234.5606  244.1288
2019.29   224.1346  234.7326  244.4424
2019.37   224.5262  235.3209  244.8732
2019.46   224.6776  235.5375  245.0003
2019.54   225.4147  236.2704  245.8618
2019.62   225.6595  236.6578  246.3913
2019.71   225.71  236.8419  246.6022
2019.79   225.9477  237.1735  246.9096
2019.87   226.0532  237.2074  246.891
2019.96   225.9506  236.9055  246.4677
2020.04   225.4987  236.1926  245.7152
2020.12   224.8423  235.2539  244.7005
2020.21   224.3258  234.6366  244.1723
2020.29   224.139  234.7225  244.4325
2020.37   224.5077  235.3846  245.0055
2020.46   225.0449  235.9801  245.5397
2020.54   225.4471  236.3379  245.9505
2020.62   225.6665  236.5941  246.3542
2020.71   225.6133  236.8749  246.743
2020.79   225.6227  236.885  246.5288
2020.87   225.67  236.7833  246.4261
2020.96   225.6301  236.6923  246.3952
2021.04   225.3139  236.0499  245.5895
2021.12   224.7501  235.1493  244.5849
2021.21   224.2444  234.5116  244.0941
2021.29   224.0997  234.6663  244.4959
2021.37   224.5044  235.3574  244.992
2021.46   225.0219  235.9128  245.48
2021.54   225.4453  236.2889  245.9294 
